   0.0000000e+00   9.5848026e-01
   4.0000000e-03   6.9191014e-01
   8.0000000e-03   5.2534002e-01
   1.2000000e-02   4.7676990e-01
   1.6000000e-02   4.5919979e-01
   2.0000000e-02   4.4562967e-01
   2.4000000e-02   4.2905955e-01
   2.8000000e-02   4.3048943e-01
   3.2000000e-02   3.8491931e-01
   3.6000000e-02   3.6334919e-01
   4.0000000e-02   3.5777907e-01
   4.4000000e-02   3.6320895e-01
   4.8000000e-02   3.8763884e-01
   5.2000000e-02   3.7906872e-01
   5.6000000e-02   3.8049860e-01
   6.0000000e-02   3.8492848e-01
   6.4000000e-02   3.8835836e-01
   6.8000000e-02   4.0478824e-01
   7.2000000e-02   3.9621812e-01
   7.6000000e-02   3.8764800e-01
   8.0000000e-02   3.9407789e-01
   8.4000000e-02   3.7750777e-01
   8.8000000e-02   3.6693765e-01
   9.2000000e-02   4.2336753e-01
   9.6000000e-02   3.8979741e-01
   1.0000000e-01   3.5822729e-01
   1.0400000e-01   3.7565717e-01
   1.0800000e-01   3.7708705e-01
   1.1200000e-01   3.7051694e-01
   1.1600000e-01   3.7194682e-01
   1.2000000e-01   3.7637670e-01
   1.2400000e-01   3.7480658e-01
   1.2800000e-01   3.8623646e-01
   1.3200000e-01   3.9066634e-01
   1.3600000e-01   3.8409622e-01
   1.4000000e-01   4.0552610e-01
   1.4400000e-01   4.1995599e-01
   1.4800000e-01   4.1338587e-01
   1.5200000e-01   4.0181575e-01
   1.5600000e-01   4.3124563e-01
   1.6000000e-01   4.2267551e-01
   1.6400000e-01   4.2910539e-01
   1.6800000e-01   4.2353527e-01
   1.7200000e-01   4.4396515e-01
   1.7600000e-01   4.4339504e-01
   1.8000000e-01   4.6282492e-01
   1.8400000e-01   4.8125480e-01
   1.8800000e-01   4.7768468e-01
   1.9200000e-01   5.1211456e-01
   1.9600000e-01   5.1554444e-01
   2.0000000e-01   5.3497432e-01
   2.0400000e-01   5.3640420e-01
   2.0800000e-01   5.4483409e-01
   2.1200000e-01   5.4126397e-01
   2.1600000e-01   5.4969385e-01
   2.2000000e-01   5.7212373e-01
   2.2400000e-01   5.7055361e-01
   2.2800000e-01   5.9398349e-01
   2.3200000e-01   5.9541337e-01
   2.3600000e-01   5.9684325e-01
   2.4000000e-01   6.1927314e-01
   2.4400000e-01   6.3570302e-01
   2.4800000e-01   6.0113290e-01
   2.5200000e-01   5.9256278e-01
   2.5600000e-01   5.9399266e-01
   2.6000000e-01   5.6842254e-01
   2.6400000e-01   5.5985242e-01
   2.6800000e-01   5.4628230e-01
   2.7200000e-01   5.4071219e-01
   2.7600000e-01   5.3414207e-01
   2.8000000e-01   5.2357195e-01
   2.8400000e-01   5.0400183e-01
   2.8800000e-01   5.0543171e-01
   2.9200000e-01   5.1986159e-01
   2.9600000e-01   5.1929147e-01
   3.0000000e-01   5.1572135e-01
   3.0400000e-01   5.0915124e-01
   3.0800000e-01   5.1858112e-01
   3.1200000e-01   5.1401100e-01
   3.1600000e-01   5.2144088e-01
   3.2000000e-01   5.2487076e-01
   3.2400000e-01   5.3930064e-01
   3.2800000e-01   5.1973052e-01
   3.3200000e-01   5.4216040e-01
   3.3600000e-01   5.5059029e-01
   3.4000000e-01   5.5402017e-01
   3.4400000e-01   5.7645005e-01
   3.4800000e-01   5.7187993e-01
   3.5200000e-01   5.5430981e-01
   3.5600000e-01   5.5073969e-01
   3.6000000e-01   5.7216957e-01
   3.6400000e-01   5.7359945e-01
   3.6800000e-01   5.7702934e-01
   3.7200000e-01   5.7145922e-01
   3.7600000e-01   5.7488910e-01
   3.8000000e-01   5.7131898e-01
   3.8400000e-01   5.8074886e-01
   3.8800000e-01   5.9217874e-01
   3.9200000e-01   5.9060862e-01
   3.9600000e-01   5.9703850e-01
   4.0000000e-01   6.0046839e-01
   4.0400000e-01   5.8489827e-01
   4.0800000e-01   5.4632815e-01
   4.1200000e-01   5.2775803e-01
   4.1600000e-01   5.4418791e-01
   4.2000000e-01   5.8061779e-01
   4.2400000e-01   5.6904767e-01
   4.2800000e-01   5.8347755e-01
   4.3200000e-01   5.6790743e-01
   4.3600000e-01   5.6933732e-01
   4.4000000e-01   5.4776720e-01
   4.4400000e-01   5.4419708e-01
   4.4800000e-01   5.4262696e-01
   4.5200000e-01   5.6705684e-01
   4.5600000e-01   5.8648672e-01
   4.6000000e-01   6.0291660e-01
   4.6400000e-01   6.0934648e-01
   4.6800000e-01   5.9777637e-01
   4.7200000e-01   6.0420625e-01
   4.7600000e-01   5.8363613e-01
   4.8000000e-01   5.9206601e-01
   4.8400000e-01   5.8349589e-01
   4.8800000e-01   5.5492577e-01
   4.9200000e-01   5.6135565e-01
   4.9600000e-01   5.7078553e-01
   5.0000000e-01   5.8121542e-01
   5.0400000e-01   5.9564530e-01
   5.0800000e-01   5.6907518e-01
   5.1200000e-01   5.9150506e-01
   5.1600000e-01   5.9293494e-01
   5.2000000e-01   5.8836482e-01
   5.2400000e-01   5.9279470e-01
   5.2800000e-01   5.9122458e-01
   5.3200000e-01   5.7565447e-01
   5.3600000e-01   5.7708435e-01
   5.4000000e-01   5.7551423e-01
   5.4400000e-01   5.8794411e-01
   5.4800000e-01   5.8337399e-01
   5.5200000e-01   5.8480387e-01
   5.5600000e-01   6.0923375e-01
   5.6000000e-01   6.5066363e-01
   5.6400000e-01   6.2509352e-01
   5.6800000e-01   6.2352340e-01
   5.7200000e-01   6.1995328e-01
   5.7600000e-01   6.2638316e-01
   5.8000000e-01   6.2081304e-01
   5.8400000e-01   5.8924292e-01
   5.8800000e-01   6.0067280e-01
   5.9200000e-01   6.1210268e-01
   5.9600000e-01   6.3353257e-01
   6.0000000e-01   6.6496245e-01
   6.0400000e-01   6.9839233e-01
   6.0800000e-01   6.9782221e-01
   6.1200000e-01   6.8425209e-01
   6.1600000e-01   6.3068197e-01
   6.2000000e-01   6.4211185e-01
   6.2400000e-01   6.8354173e-01
   6.2800000e-01   7.3697162e-01
   6.3200000e-01   7.6340150e-01
   6.3600000e-01   7.6483138e-01
   6.4000000e-01   7.5126126e-01
   6.4400000e-01   7.1069114e-01
   6.4800000e-01   7.2512102e-01
   6.5200000e-01   7.1855090e-01
   6.5600000e-01   7.3698078e-01
   6.6000000e-01   7.2641067e-01
   6.6400000e-01   7.3984055e-01
   6.6800000e-01   7.2127043e-01
   6.7200000e-01   6.9570031e-01
   6.7600000e-01   6.9513019e-01
   6.8000000e-01   6.6656007e-01
   6.8400000e-01   6.5498995e-01
   6.8800000e-01   6.5441983e-01
   6.9200000e-01   6.4584972e-01
   6.9600000e-01   6.3427960e-01
   7.0000000e-01   6.2370948e-01
   7.0400000e-01   6.1513936e-01
   7.0800000e-01   6.1656924e-01
   7.1200000e-01   6.1999912e-01
   7.1600000e-01   6.1942900e-01
   7.2000000e-01   6.2785888e-01
   7.2400000e-01   5.3728877e-01
   7.2800000e-01   3.9571865e-01
   7.3200000e-01   3.0014853e-01
   7.3600000e-01   3.6857841e-01
   7.4000000e-01   6.1000829e-01
   7.4400000e-01   9.9843817e-01
   7.4800000e-01   1.4578681e+00
   7.5200000e-01   2.0062979e+00
   7.5600000e-01   2.4427278e+00
   7.6000000e-01   2.4541577e+00
   7.6400000e-01   2.1005876e+00
   7.6800000e-01   1.7330175e+00
   7.7200000e-01   1.4094473e+00
   7.7600000e-01   1.0978772e+00
   7.8000000e-01   8.6230710e-01
   7.8400000e-01   7.4373698e-01
   7.8800000e-01   6.9016687e-01
   7.9200000e-01   6.6559675e-01
   7.9600000e-01   6.7002663e-01
   8.0000000e-01   6.5645651e-01
   8.0400000e-01   6.6088639e-01
   8.0800000e-01   6.3631627e-01
   8.1200000e-01   6.2074615e-01
   8.1600000e-01   6.2217603e-01
   8.2000000e-01   6.0360592e-01
   8.2400000e-01   6.2503580e-01
   8.2800000e-01   6.1846568e-01
   8.3200000e-01   6.1489556e-01
   8.3600000e-01   5.9732544e-01
   8.4000000e-01   5.9275532e-01
   8.4400000e-01   6.0018520e-01
   8.4800000e-01   6.2861508e-01
   8.5200000e-01   6.2204497e-01
   8.5600000e-01   6.2647485e-01
   8.6000000e-01   6.2790473e-01
   8.6400000e-01   6.1233461e-01
   8.6800000e-01   6.1576449e-01
   8.7200000e-01   6.2419437e-01
   8.7600000e-01   6.2362425e-01
   8.8000000e-01   6.3505413e-01
   8.8400000e-01   6.4148401e-01
   8.8800000e-01   6.5091390e-01
   8.9200000e-01   6.2434378e-01
   8.9600000e-01   6.1877366e-01
   9.0000000e-01   6.2520354e-01
   9.0400000e-01   6.6863342e-01
   9.0800000e-01   6.9006330e-01
   9.1200000e-01   6.6949318e-01
   9.1600000e-01   6.7792306e-01
   9.2000000e-01   6.7935295e-01
   9.2400000e-01   6.9578283e-01
   9.2800000e-01   6.8221271e-01
   9.3200000e-01   6.9664259e-01
   9.3600000e-01   6.9507247e-01
   9.4000000e-01   7.1150235e-01
   9.4400000e-01   7.0793223e-01
   9.4800000e-01   7.0936211e-01
   9.5200000e-01   7.3379200e-01
   9.5600000e-01   7.8222188e-01
   9.6000000e-01   7.8365176e-01
   9.6400000e-01   7.9508164e-01
   9.6800000e-01   8.2651152e-01
   9.7200000e-01   8.3794140e-01
   9.7600000e-01   8.4937128e-01
   9.8000000e-01   8.6280116e-01
   9.8400000e-01   8.8523105e-01
   9.8800000e-01   9.0166093e-01
   9.9200000e-01   9.0509081e-01
   9.9600000e-01   9.1652069e-01
   1.0000000e+00   9.0795057e-01
   1.0040000e+00   9.2938045e-01
   1.0080000e+00   9.3581033e-01
   1.0120000e+00   9.2724021e-01
   1.0160000e+00   9.3667010e-01
   1.0200000e+00   9.1309998e-01
   1.0240000e+00   9.0652986e-01
   1.0280000e+00   9.0095974e-01
   1.0320000e+00   8.7938962e-01
   1.0360000e+00   8.6581950e-01
   1.0400000e+00   8.3524938e-01
   1.0440000e+00   8.2667926e-01
   1.0480000e+00   8.2010915e-01
   1.0520000e+00   7.9953903e-01
   1.0560000e+00   8.1296891e-01
   1.0600000e+00   8.0939879e-01
   1.0640000e+00   7.9782867e-01
   1.0680000e+00   8.0225855e-01
   1.0720000e+00   8.0368843e-01
   1.0760000e+00   8.0511831e-01
   1.0800000e+00   7.9154820e-01
   1.0840000e+00   7.9797808e-01
   1.0880000e+00   8.0240796e-01
   1.0920000e+00   8.0583784e-01
   1.0960000e+00   7.8526772e-01
   1.1000000e+00   7.7369760e-01
   1.1040000e+00   7.8512748e-01
   1.1080000e+00   7.8155736e-01
   1.1120000e+00   8.2098725e-01
   1.1160000e+00   8.2241713e-01
   1.1200000e+00   7.9084701e-01
   1.1240000e+00   7.9527689e-01
   1.1280000e+00   7.9370677e-01
   1.1320000e+00   8.3513665e-01
   1.1360000e+00   8.1656653e-01
   1.1400000e+00   7.9799641e-01
   1.1440000e+00   8.0942630e-01
   1.1480000e+00   7.9285618e-01
   1.1520000e+00   8.1228606e-01
   1.1560000e+00   8.3871594e-01
   1.1600000e+00   8.4514582e-01
   1.1640000e+00   8.3957570e-01
   1.1680000e+00   8.0500558e-01
   1.1720000e+00   8.2443546e-01
   1.1760000e+00   8.1086535e-01
   1.1800000e+00   8.6229523e-01
   1.1840000e+00   8.5372511e-01
   1.1880000e+00   8.1515499e-01
   1.1920000e+00   8.0658487e-01
   1.1960000e+00   8.2801475e-01
   1.2000000e+00   8.3444463e-01
   1.2040000e+00   8.5387451e-01
   1.2080000e+00   8.6230440e-01
   1.2120000e+00   8.5673428e-01
   1.2160000e+00   8.4516416e-01
   1.2200000e+00   8.4659404e-01
   1.2240000e+00   8.5102392e-01
   1.2280000e+00   8.5245380e-01
   1.2320000e+00   8.2288368e-01
   1.2360000e+00   8.2431356e-01
   1.2400000e+00   8.5674345e-01
   1.2440000e+00   8.6217333e-01
   1.2480000e+00   8.4860321e-01
   1.2520000e+00   8.4103309e-01
   1.2560000e+00   8.3646297e-01
   1.2600000e+00   8.3289285e-01
   1.2640000e+00   8.3732273e-01
   1.2680000e+00   8.3375261e-01
   1.2720000e+00   8.4518250e-01
   1.2760000e+00   8.5661238e-01
   1.2800000e+00   8.5104226e-01
   1.2840000e+00   8.6147214e-01
   1.2880000e+00   8.6090202e-01
   1.2920000e+00   8.4233190e-01
   1.2960000e+00   8.6376178e-01
   1.3000000e+00   8.6719166e-01
   1.3040000e+00   8.8662155e-01
   1.3080000e+00   8.7805143e-01
   1.3120000e+00   8.6948131e-01
   1.3160000e+00   8.8091119e-01
   1.3200000e+00   8.8934107e-01
   1.3240000e+00   8.8877095e-01
   1.3280000e+00   8.6820083e-01
   1.3320000e+00   8.7663071e-01
   1.3360000e+00   8.9106059e-01
   1.3400000e+00   8.8449048e-01
   1.3440000e+00   8.8292036e-01
   1.3480000e+00   9.0535024e-01
   1.3520000e+00   8.9378012e-01
   1.3560000e+00   9.1521000e-01
   1.3600000e+00   9.3963988e-01
   1.3640000e+00   9.7306976e-01
   1.3680000e+00   9.5249964e-01
   1.3720000e+00   9.0792953e-01
   1.3760000e+00   9.2735941e-01
   1.3800000e+00   9.5378929e-01
   1.3840000e+00   9.7721917e-01
   1.3880000e+00   1.0066491e+00
   1.3920000e+00   1.0100789e+00
   1.3960000e+00   1.0295088e+00
   1.4000000e+00   1.0209387e+00
   1.4040000e+00   1.0243686e+00
   1.4080000e+00   1.0157985e+00
   1.4120000e+00   9.9822834e-01
   1.4160000e+00   9.9665822e-01
   1.4200000e+00   9.6308810e-01
   1.4240000e+00   9.2451798e-01
   1.4280000e+00   9.3594786e-01
   1.4320000e+00   9.1237774e-01
   1.4360000e+00   9.1580763e-01
   1.4400000e+00   9.1523751e-01
   1.4440000e+00   9.0666739e-01
   1.4480000e+00   9.0309727e-01
   1.4520000e+00   9.1452715e-01
   1.4560000e+00   9.0095703e-01
   1.4600000e+00   9.0738691e-01
   1.4640000e+00   9.0081679e-01
   1.4680000e+00   9.0724668e-01
   1.4720000e+00   8.8667656e-01
   1.4760000e+00   8.7510644e-01
   1.4800000e+00   7.4953632e-01
   1.4840000e+00   6.2396620e-01
   1.4880000e+00   5.9939608e-01
   1.4920000e+00   7.2082596e-01
   1.4960000e+00   1.0372558e+00
   1.5000000e+00   1.4396857e+00
   1.5040000e+00   1.9701156e+00
   1.5080000e+00   2.5325455e+00
   1.5120000e+00   2.7879754e+00
   1.5160000e+00   2.5724053e+00
   1.5200000e+00   2.1788351e+00
   1.5240000e+00   1.8222650e+00
   1.5280000e+00   1.4686949e+00
   1.5320000e+00   1.1881248e+00
   1.5360000e+00   1.0365547e+00
   1.5400000e+00   9.7098454e-01
   1.5440000e+00   9.6541442e-01
   1.5480000e+00   9.5184430e-01
   1.5520000e+00   9.2527418e-01
   1.5560000e+00   8.9470406e-01
   1.5600000e+00   8.9113394e-01
   1.5640000e+00   8.9956383e-01
   1.5680000e+00   8.9099371e-01
   1.5720000e+00   9.0242359e-01
   1.5760000e+00   9.0885347e-01
   1.5800000e+00   9.2228335e-01
   1.5840000e+00   8.8671323e-01
   1.5880000e+00   9.0614311e-01
   1.5920000e+00   9.0757299e-01
   1.5960000e+00   8.9100288e-01
   1.6000000e+00   9.0543276e-01
   1.6040000e+00   9.0086264e-01
   1.6080000e+00   9.0829252e-01
   1.6120000e+00   9.0972240e-01
   1.6160000e+00   8.9315228e-01
   1.6200000e+00   8.9958216e-01
   1.6240000e+00   9.2101204e-01
   1.6280000e+00   9.2244193e-01
   1.6320000e+00   9.1887181e-01
   1.6360000e+00   9.1030169e-01
   1.6400000e+00   9.2473157e-01
   1.6440000e+00   9.2816145e-01
   1.6480000e+00   9.1159133e-01
   1.6520000e+00   9.4602121e-01
   1.6560000e+00   9.4245109e-01
   1.6600000e+00   9.1388098e-01
   1.6640000e+00   9.3031086e-01
   1.6680000e+00   9.4874074e-01
   1.6720000e+00   9.6117062e-01
   1.6760000e+00   9.6460050e-01
   1.6800000e+00   9.8303038e-01
   1.6840000e+00   1.0024603e+00
   1.6880000e+00   9.7389014e-01
   1.6920000e+00   9.7332003e-01
   1.6960000e+00   1.0297499e+00
   1.7000000e+00   1.0381798e+00
   1.7040000e+00   1.0396097e+00
   1.7080000e+00   1.0460396e+00
   1.7120000e+00   1.0294694e+00
   1.7160000e+00   1.0768993e+00
   1.7200000e+00   1.1173292e+00
   1.7240000e+00   1.1217591e+00
   1.7280000e+00   1.1281890e+00
   1.7320000e+00   1.1596188e+00
   1.7360000e+00   1.1710487e+00
   1.7400000e+00   1.2054786e+00
   1.7440000e+00   1.2139085e+00
   1.7480000e+00   1.2203384e+00
   1.7520000e+00   1.2417682e+00
   1.7560000e+00   1.2451981e+00
   1.7600000e+00   1.2426280e+00
   1.7640000e+00   1.2330579e+00
   1.7680000e+00   1.2274878e+00
   1.7720000e+00   1.2089176e+00
   1.7760000e+00   1.2003475e+00
   1.7800000e+00   1.1997774e+00
   1.7840000e+00   1.1732073e+00
   1.7880000e+00   1.1616372e+00
   1.7920000e+00   1.1530671e+00
   1.7960000e+00   1.1874969e+00
   1.8000000e+00   1.1659268e+00
   1.8040000e+00   1.1553567e+00
   1.8080000e+00   1.1367866e+00
   1.8120000e+00   1.1132165e+00
   1.8160000e+00   1.1296463e+00
   1.8200000e+00   1.1360762e+00
   1.8240000e+00   1.1375061e+00
   1.8280000e+00   1.1259360e+00
   1.8320000e+00   1.1373659e+00
   1.8360000e+00   1.1567957e+00
   1.8400000e+00   1.1432256e+00
   1.8440000e+00   1.1266555e+00
   1.8480000e+00   1.1310854e+00
   1.8520000e+00   1.1345153e+00
   1.8560000e+00   1.1389452e+00
   1.8600000e+00   1.1303750e+00
   1.8640000e+00   1.1018049e+00
   1.8680000e+00   1.1032348e+00
   1.8720000e+00   1.1166647e+00
   1.8760000e+00   1.1210946e+00
   1.8800000e+00   1.1105244e+00
   1.8840000e+00   1.1169543e+00
   1.8880000e+00   1.1253842e+00
   1.8920000e+00   1.1118141e+00
   1.8960000e+00   1.1232440e+00
   1.9000000e+00   1.1196738e+00
   1.9040000e+00   1.1161037e+00
   1.9080000e+00   1.1255336e+00
   1.9120000e+00   1.1239635e+00
   1.9160000e+00   1.1053934e+00
   1.9200000e+00   1.1218233e+00
   1.9240000e+00   1.1312531e+00
   1.9280000e+00   1.1296830e+00
   1.9320000e+00   1.1411129e+00
   1.9360000e+00   1.1625428e+00
   1.9400000e+00   1.1639727e+00
   1.9440000e+00   1.1554025e+00
   1.9480000e+00   1.1368324e+00
   1.9520000e+00   1.1382623e+00
   1.9560000e+00   1.1296922e+00
   1.9600000e+00   1.1511221e+00
   1.9640000e+00   1.1525519e+00
   1.9680000e+00   1.1739818e+00
   1.9720000e+00   1.1504117e+00
   1.9760000e+00   1.1198416e+00
   1.9800000e+00   1.1312715e+00
   1.9840000e+00   1.1447014e+00
   1.9880000e+00   1.1361312e+00
   1.9920000e+00   1.1505611e+00
   1.9960000e+00   1.1859910e+00
